#    s        x        y     Ue/Vinf    Dstar     Theta      Cf       H
   0.00000  0.98750  0.00400  0.91357  0.007129  0.002842  0.000388     2.508
   0.00546  0.98224  0.00546  0.91825  0.006843  0.002777  0.000427     2.465
   0.01271  0.97531  0.00760  0.92787  0.006197  0.002650  0.000556     2.338
   0.02120  0.96728  0.01036  0.94510  0.005257  0.002448  0.000823     2.148
   0.03099  0.95809  0.01373  0.97673  0.004088  0.002139  0.001365     1.912
   0.04183  0.94787  0.01736  1.02336  0.003038  0.001782  0.002223     1.705
   0.05359  0.93665  0.02088  1.06769  0.002397  0.001513  0.003085     1.584
   0.06597  0.92473  0.02419  1.11123  0.001939  0.001297  0.004019     1.495
   0.07889  0.91214  0.02710  1.13051  0.001757  0.001200  0.004467     1.464
   0.09215  0.89915  0.02978  1.16063  0.001517  0.001073  0.005255     1.414
   0.10563  0.88585  0.03197  1.16542  0.001444  0.001031  0.005485     1.400
   0.11930  0.87231  0.03385  1.17826  0.001325  0.000966  0.005977     1.372
   0.13307  0.85861  0.03525  1.17182  0.001301  0.000954  0.006017     1.365
   0.14717  0.84455  0.03629  1.15677  0.001319  0.000965  0.005837     1.368
   0.16148  0.83027  0.03707  1.14154  0.001341  0.000977  0.005638     1.373
   0.17594  0.81581  0.03769  1.12758  0.001359  0.000986  0.005455     1.378
   0.19033  0.80143  0.03816  1.10593  0.001429  0.001022  0.005045     1.399
   0.20471  0.78707  0.03872  1.10537  0.001384  0.000994  0.005140     1.392
   0.21921  0.77257  0.03920  1.08925  0.001430  0.001014  0.004838     1.410
   0.23404  0.75776  0.03980  1.09001  0.001378  0.000981  0.004938     1.404
   0.24913  0.74267  0.04040  1.08552  0.001355  0.000963  0.004913     1.407
   0.26436  0.72746  0.04101  1.08206  0.001327  0.000942  0.004905     1.409
   0.27960  0.71223  0.04162  1.07833  0.001301  0.000921  0.004881     1.412
   0.29477  0.69707  0.04223  1.07303  0.001286  0.000905  0.004797     1.421
   0.30979  0.68207  0.04286  1.06542  0.001289  0.000896  0.004615     1.439
   0.32473  0.66715  0.04365  1.07038  0.001225  0.000851  0.004725     1.439
   0.33966  0.65224  0.04449  1.06976  0.001195  0.000822  0.004663     1.453
   0.35461  0.63732  0.04544  1.07755  0.001125  0.000772  0.004784     1.458
   0.36962  0.62234  0.04639  1.08084  0.001084  0.000733  0.004725     1.478
   0.38451  0.60748  0.04736  1.08843  0.001032  0.000686  0.004679     1.505
   0.39917  0.59285  0.04822  1.08514  0.001055  0.000666  0.004118     1.584
   0.41374  0.57830  0.04912  1.09183  0.001066  0.000628  0.003521     1.697
   0.42848  0.56359  0.04996  1.09427  0.001177  0.000605  0.002369     1.946
   0.44349  0.54860  0.05081  1.10452  0.001365  0.000571  0.001165     2.390
   0.45869  0.53342  0.05166  1.11952  0.001576  0.000532  0.000482     2.965
   0.47399  0.51815  0.05251  1.12246  0.001646  0.000522  0.000336     3.153
   0.48931  0.50286  0.05337  1.12531  0.001649  0.000513  0.000299     3.212
   0.50458  0.48761  0.05422  1.12914  0.001609  0.000503  0.000315     3.201
   0.51973  0.47249  0.05507  1.13409  0.001516  0.000489  0.000407     3.099
   0.53470  0.45753  0.05587  1.13935  0.001420  0.000475  0.000525     2.988
   0.54963  0.44263  0.05659  1.14387  0.001353  0.000463  0.000611     2.922
   0.56449  0.42777  0.05722  1.14881  0.001275  0.000449  0.000736     2.837
   0.57936  0.41291  0.05771  1.14957  0.001305  0.000444  0.000623     2.937
   0.59423  0.39805  0.05817  1.15370  0.001258  0.000433  0.000679     2.907
   0.60919  0.38310  0.05852  1.15496  0.001303  0.000427  0.000525     3.050
   0.62422  0.36807  0.05888  1.15923  0.001280  0.000416  0.000514     3.075
   0.63920  0.35310  0.05925  1.16607  0.001183  0.000401  0.000684     2.950
   0.65412  0.33818  0.05950  1.16999  0.001167  0.000391  0.000657     2.987
   0.66903  0.32327  0.05975  1.17735  0.001071  0.000375  0.000872     2.858
   0.68376  0.30853  0.05992  1.18740  0.000934  0.000354  0.001338     2.637
   0.69859  0.29371  0.05985  1.18815  0.000920  0.000346  0.001327     2.657
   0.71347  0.27883  0.05966  1.19090  0.000881  0.000335  0.001437     2.628
   0.72837  0.26393  0.05932  1.19193  0.000862  0.000326  0.001452     2.639
   0.74330  0.24901  0.05883  1.19156  0.000867  0.000320  0.001318     2.714
   0.75829  0.23403  0.05823  1.19103  0.000913  0.000314  0.000965     2.906
   0.77327  0.21907  0.05764  1.19866  0.000857  0.000299  0.001099     2.865
   0.78812  0.20423  0.05697  1.20686  0.000793  0.000284  0.001314     2.796
   0.80282  0.18955  0.05618  1.21686  0.000699  0.000265  0.001833     2.637
   0.81738  0.17503  0.05514  1.21898  0.000673  0.000254  0.001877     2.650
   0.83177  0.16069  0.05395  1.22904  0.000567  0.000233  0.002873     2.427
   0.84612  0.14643  0.05239  1.22026  0.000558  0.000227  0.002807     2.457
   0.86049  0.13217  0.05057  1.21252  0.000552  0.000220  0.002670     2.508
   0.87483  0.11798  0.04856  1.20399  0.000610  0.000217  0.001670     2.811
   0.88891  0.10403  0.04656  1.21499  0.000563  0.000199  0.001792     2.824
   0.90259  0.09052  0.04445  1.22724  0.000552  0.000183  0.001382     3.020
   0.91558  0.07771  0.04225  1.25425  0.000397  0.000155  0.003621     2.562
   0.92768  0.06590  0.03964  1.25395  0.000333  0.000139  0.005094     2.405
   0.93908  0.05491  0.03661  1.23192  0.000304  0.000129  0.005775     2.355
   0.94963  0.04487  0.03336  1.20086  0.000290  0.000122  0.005775     2.374
   0.95916  0.03591  0.03014  1.17502  0.000291  0.000116  0.004885     2.513
   0.96752  0.02810  0.02714  1.17288  0.000292  0.000104  0.003417     2.806
   0.97467  0.02150  0.02440  1.19823  0.000228  0.000084  0.005081     2.709
   0.98076  0.01605  0.02167  1.20873  0.000162  0.000066  0.009598     2.456
   0.98608  0.01161  0.01875  1.16114  0.000129  0.000055  0.013120     2.332
   0.99081  0.00802  0.01566  1.06315  0.000113  0.000049  0.014055     2.305
   0.99508  0.00518  0.01247  0.93622  0.000100  0.000044  0.014304     2.279
   0.99897  0.00300  0.00925  0.77798  0.000091  0.000040  0.013427     2.256
   1.00254  0.00143  0.00605  0.59558  0.000084  0.000037  0.011126     2.252
   1.00582  0.00042  0.00292  0.39369  0.000076  0.000034  0.008130     2.247
   1.00886 -0.00000 -0.00009  0.16033  0.000070  0.000031  0.003679     2.230
   1.01181  0.00022 -0.00302 -0.09487  0.000070  0.000031  0.002177     2.230
   1.01494  0.00106 -0.00604 -0.33100  0.000077  0.000035  0.006739     2.245
   1.01840  0.00256 -0.00916 -0.54439  0.000084  0.000037  0.010234     2.244
   1.02222  0.00475 -0.01229 -0.71490  0.000098  0.000043  0.011012     2.293
   1.02640  0.00759 -0.01535 -0.84827  0.000110  0.000048  0.011708     2.283
   1.03098  0.01108 -0.01831 -0.96284  0.000123  0.000054  0.011763     2.297
   1.03611  0.01537 -0.02114 -1.04488  0.000145  0.000061  0.010271     2.357
   1.04196  0.02060 -0.02375 -1.06758  0.000194  0.000076  0.006429     2.544
   1.04878  0.02695 -0.02625 -1.05481  0.000261  0.000097  0.003932     2.702
   1.05678  0.03448 -0.02894 -1.06351  0.000268  0.000109  0.005079     2.461
   1.06595  0.04318 -0.03182 -1.09107  0.000278  0.000117  0.005488     2.374
   1.07617  0.05297 -0.03476 -1.13073  0.000283  0.000122  0.005910     2.316
   1.08718  0.06365 -0.03745 -1.16647  0.000302  0.000129  0.005563     2.342
   1.09902  0.07529 -0.03960 -1.15480  0.000415  0.000153  0.002689     2.709
   1.11178  0.08792 -0.04144 -1.13970  0.000487  0.000175  0.002043     2.787
   1.12526  0.10130 -0.04305 -1.11961  0.000595  0.000199  0.001247     2.980
   1.13933  0.11527 -0.04472 -1.11863  0.000552  0.000210  0.002145     2.632
   1.15374  0.12959 -0.04629 -1.12037  0.000565  0.000221  0.002284     2.558
   1.16831  0.14409 -0.04777 -1.12841  0.000561  0.000228  0.002567     2.463
   1.18280  0.15853 -0.04904 -1.13615  0.000574  0.000235  0.002592     2.438
   1.19731  0.17300 -0.05004 -1.13685  0.000623  0.000248  0.002220     2.509
   1.21188  0.18755 -0.05077 -1.12970  0.000709  0.000266  0.001631     2.661
   1.22649  0.20216 -0.05135 -1.12367  0.000768  0.000282  0.001383     2.725
   1.24103  0.21668 -0.05181 -1.11757  0.000823  0.000297  0.001209     2.772
   1.25538  0.23103 -0.05222 -1.11328  0.000855  0.000309  0.001174     2.763
   1.26956  0.24521 -0.05263 -1.11449  0.000832  0.000315  0.001407     2.639
   1.28376  0.25940 -0.05295 -1.11545  0.000834  0.000322  0.001489     2.589
   1.29821  0.27385 -0.05317 -1.11587  0.000849  0.000330  0.001489     2.572
   1.31284  0.28848 -0.05330 -1.11696  0.000861  0.000338  0.001505     2.551
   1.32758  0.30322 -0.05329 -1.11546  0.000900  0.000348  0.001385     2.585
   1.34234  0.31797 -0.05314 -1.11319  0.000942  0.000359  0.001264     2.623
   1.35701  0.33264 -0.05284 -1.10649  0.001038  0.000376  0.000967     2.758
   1.37157  0.34720 -0.05249 -1.10357  0.001068  0.000387  0.000933     2.761
   1.38595  0.36157 -0.05204 -1.09597  0.001187  0.000405  0.000657     2.933
   1.40026  0.37588 -0.05169 -1.09700  0.001124  0.000408  0.000885     2.758
   1.41463  0.39024 -0.05123 -1.09399  0.001161  0.000418  0.000834     2.777
   1.42894  0.40455 -0.05075 -1.09365  0.001152  0.000424  0.000908     2.717
   1.44313  0.41872 -0.05019 -1.09348  0.001150  0.000430  0.000956     2.675
   1.45708  0.43265 -0.04951 -1.08883  0.001228  0.000444  0.000793     2.768
   1.47098  0.44653 -0.04880 -1.08800  0.001230  0.000450  0.000829     2.733
   1.48500  0.46053 -0.04796 -1.08311  0.001316  0.000464  0.000674     2.835
   1.49934  0.47484 -0.04704 -1.07939  0.001374  0.000476  0.000599     2.886
   1.51393  0.48940 -0.04600 -1.07345  0.001501  0.000493  0.000425     3.047
   1.52872  0.50415 -0.04494 -1.06908  0.001578  0.000505  0.000354     3.122
   1.54347  0.51886 -0.04389 -1.06637  0.001584  0.000514  0.000378     3.080
   1.55804  0.53339 -0.04276 -1.06194  0.001680  0.000528  0.000293     3.184
   1.57254  0.54785 -0.04169 -1.06007  0.001650  0.000535  0.000357     3.086
   1.58714  0.56240 -0.04054 -1.05785  0.001653  0.000543  0.000381     3.046
   1.60182  0.57703 -0.03925 -1.05349  0.001763  0.000556  0.000287     3.168
   1.61632  0.59147 -0.03800 -1.05134  0.001758  0.000564  0.000316     3.116
   1.63040  0.60548 -0.03668 -1.04808  0.001826  0.000575  0.000272     3.173
   1.64423  0.61925 -0.03530 -1.04477  0.001905  0.000586  0.000223     3.249
   1.65796  0.63291 -0.03386 -1.04155  0.001989  0.000597  0.000177     3.330
   1.67180  0.64666 -0.03239 -1.03916  0.002004  0.000606  0.000185     3.307
   1.68577  0.66055 -0.03085 -1.02903  0.001975  0.000639  0.000288     3.091
   1.69996  0.67467 -0.02937 -1.01218  0.001669  0.000695  0.000920     2.401
   1.71447  0.68908 -0.02776 -0.99697  0.001497  0.000750  0.001734     1.995
   1.72923  0.70375 -0.02611 -0.98907  0.001381  0.000790  0.002536     1.749
   1.74401  0.71844 -0.02448 -0.98688  0.001312  0.000818  0.003174     1.604
   1.75865  0.73298 -0.02278 -0.98031  0.001326  0.000863  0.003452     1.537
   1.77315  0.74738 -0.02106 -0.97641  0.001347  0.000902  0.003639     1.492
   1.78748  0.76159 -0.01924 -0.95990  0.001469  0.000986  0.003444     1.491
   1.80177  0.77578 -0.01753 -0.95790  0.001495  0.001020  0.003542     1.466
   1.81618  0.79007 -0.01570 -0.94058  0.001648  0.001115  0.003270     1.478
   1.83077  0.80457 -0.01400 -0.93244  0.001732  0.001176  0.003196     1.473
   1.84539  0.81910 -0.01243 -0.92853  0.001785  0.001221  0.003195     1.462
   1.85996  0.83359 -0.01092 -0.92081  0.001876  0.001284  0.003102     1.462
   1.87437  0.84794 -0.00952 -0.91719  0.001932  0.001328  0.003085     1.455
   1.88861  0.86211 -0.00814 -0.90416  0.002089  0.001422  0.002878     1.469
   1.90274  0.87619 -0.00701 -0.90447  0.002103  0.001445  0.002932     1.456
   1.91682  0.89023 -0.00591 -0.89326  0.002252  0.001534  0.002760     1.468
   1.93082  0.90421 -0.00508 -0.89061  0.002302  0.001574  0.002752     1.462
   1.94454  0.91791 -0.00454 -0.89277  0.002295  0.001585  0.002826     1.448
   1.95793  0.93130 -0.00431 -0.90781  0.002148  0.001521  0.003125     1.412
   1.97060  0.94397 -0.00405 -0.91351  0.002117  0.001513  0.003232     1.400
   1.98219  0.95556 -0.00378 -0.91682  0.002113  0.001517  0.003285     1.393
   1.99240  0.96576 -0.00349 -0.91793  0.002129  0.001530  0.003295     1.391
   2.00121  0.97456 -0.00312 -0.90976  0.002240  0.001595  0.003133     1.405
   2.00865  0.98200 -0.00281 -0.90390  0.002325  0.001644  0.003022     1.414
   2.01416  0.98750 -0.00260 -0.91357  0.002229  0.001596  0.003199     1.396
   2.01416  0.98760  0.00069  0.91357  0.015846  0.004439  0.000000     3.570
   2.01964  0.99305  0.00008  0.90397  0.015061  0.004698  0.000000     3.206
   2.02612  0.99949 -0.00059  0.89423  0.013955  0.004960  0.000000     2.813
   2.03379  1.00712 -0.00134  0.89211  0.012671  0.005016  0.000000     2.526
   2.04286  1.01615 -0.00217  0.89461  0.011349  0.004954  0.000000     2.291
   2.05358  1.02684 -0.00310  0.89974  0.010075  0.004837  0.000000     2.083
   2.06626  1.03948 -0.00412  0.90723  0.008909  0.004679  0.000000     1.904
   2.08127  1.05444 -0.00524  0.91632  0.007894  0.004504  0.000000     1.753
   2.09901  1.07214 -0.00646  0.92608  0.007042  0.004331  0.000000     1.626
   2.11999  1.09308 -0.00780  0.93569  0.006343  0.004175  0.000000     1.519
   2.14481  1.11786 -0.00925  0.94463  0.005774  0.004039  0.000000     1.430
   2.17416  1.14717 -0.01082  0.95270  0.005310  0.003924  0.000000     1.353
   2.20888  1.18184 -0.01250  0.95986  0.004932  0.003828  0.000000     1.289
   2.24994  1.22286 -0.01432  0.96617  0.004623  0.003747  0.000000     1.234
   2.29850  1.27138 -0.01626  0.97167  0.004370  0.003679  0.000000     1.188
   2.35593  1.32878 -0.01833  0.97646  0.004165  0.003622  0.000000     1.150
   2.42385  1.39667 -0.02053  0.98059  0.004000  0.003575  0.000000     1.119
   2.50419  1.47697 -0.02286  0.98414  0.003868  0.003535  0.000000     1.094
   2.59920  1.57195 -0.02532  0.98715  0.003764  0.003502  0.000000     1.075
   2.71158  1.68430 -0.02791  0.98968  0.003682  0.003474  0.000000     1.060
   2.84448  1.81717 -0.03062  0.99179  0.003619  0.003452  0.000000     1.048
   3.00167  1.97434 -0.03346  0.99365  0.003568  0.003432  0.000000     1.040
